time (ms),friction coefficient,slip (m),velocity,SEP_300,FIM_300
0.0,-0.09574654979415412,2.064605285498979e-6,0.0029206567197186803,,
0.0400000000372529,-0.09509184728769038,2.1869105247362036e-6,0.00305763098093061,,
0.0800000000745058,-0.09477713743959136,2.314871499091811e-6,0.003199024358890182,,
0.12000000011175871,-0.09451558017046405,2.448669112502692e-6,0.003344940335272032,,
0.1600000001490116,-0.09419149484252856,2.588484390881814e-6,0.003495381959478046,,
0.20000000018626451,-0.09365880648029318,2.7345021733782557e-6,0.003650444562411041,,
0.24000000022351742,-0.09339348033132541,2.886898420439005e-6,0.003809906176518731,,
0.2800000002607703,-0.09281819178153605,3.0458570916512902e-6,0.003973966780307132,,
0.3200000002980232,-0.09233281196019777,3.211573908359315e-6,0.004142920417700616,,
0.3600000003352761,-0.09192261195517737,3.3842390879351474e-6,0.004316629489395813,,
0.40000000037252903,-0.09109507581424166,3.5640418327994566e-6,0.004495068621607729,,
0.44000000040978193,-0.09073253168010595,3.7511739707737413e-6,0.0046783034493571175,,
0.48000000044703484,-0.08985770324399903,3.945808787615751e-6,0.004865870421050237,,
0.5200000004842877,-0.0893869163916736,4.148137332127376e-6,0.005058213612790619,,
0.5600000005215406,-0.0884636066925027,4.358361443252176e-6,0.005255602778120004,,
0.6000000005587935,-0.08754195929922078,4.5766764370363705e-6,0.0054578748446048675,,
0.6400000005960464,-0.08660166302706641,4.803286369139524e-6,0.005665248302578847,,
0.6800000006332994,-0.08586013727938328,5.038388418284235e-6,0.005877551228617757,,
0.7200000006705523,-0.08498180348978043,5.28215806746446e-6,0.006094241229505633,,
0.7600000007078052,-0.08404519414547823,5.534802190155483e-6,0.006316103067275567,,
0.8000000007450581,-0.08268816194824499,5.796527267999472e-6,0.006543126946099733,,
0.840000000782311,-0.08140534820566453,6.0675301393241384e-6,0.00677507178311666,,
0.8800000008195639,-0.08027919743547511,6.348003826645696e-6,0.007011842183038936,,
0.9200000008568168,-0.07886806969792864,6.638155927652337e-6,0.007253802525166018,,
0.9600000008940697,-0.07734876554351179,6.93819476499198e-6,0.007500970933491077,,
1.0000000009313226,-0.07606692751632546,7.2483121315902225e-6,0.007752934164956068,,
1.0400000009685755,-0.07417253983331529,7.568717954653147e-6,0.008010145576573108,,
1.0800000010058284,-0.07250071482890336,7.899622572873625e-6,0.008272615455511964,,
1.1200000010430813,-0.07066065852182435,8.241219457853612e-6,0.008539922124499675,,
1.1600000010803342,-0.06876663625458883,8.593730673888882e-6,0.00881278040088173,,
1.200000001117587,-0.0668344997616622,8.957350673143019e-6,0.009090499981353434,,
1.24000000115484,-0.06472989998910045,9.332293317929659e-6,0.009373566119666,,
1.280000001192093,-0.06238148740191634,9.71876782568793e-6,0.009661862693956755,,
1.3200000012293458,-0.059977042810668964,1.0117001085720374e-5,0.009955831500811113,,
1.3600000012665987,-0.057666845092522304,1.0527194275640354e-5,0.010254829747999497,,
1.4000000013038516,-0.05497487947631132,1.094957682132952e-5,0.010559563642229139,,
1.4400000013411045,-0.052181151405949915,1.1384360951528071e-5,0.010869603254963788,,
1.4800000013783574,-0.04930324819628962,1.1831780266266589e-5,0.011185482868462939,,
1.5200000014156103,-0.04636038615119914,1.2292051114168545e-5,0.011506771197548914,,
1.5600000014528632,-0.043253353201227966,1.2765395738720567e-5,0.011833615613800544,,
1.6000000014901161,-0.039943956967994104,1.3252053824507447e-5,0.012166452144672006,,
1.640000001527369,-0.03647014059318438,1.375224768328743e-5,0.012504846469499573,,
1.680000001564622,-0.03291125503965743,1.4266212329107588e-5,0.012849116145503936,,
1.7200000016018748,-0.029081776888028203,1.4794176260982714e-5,0.01319909829687815,,
1.7600000016391277,-0.025228043062039525,1.5336400064850585e-5,0.013555595096696783,,
1.8000000016763806,-0.021100217230775577,1.5893118476418592e-5,0.013917960289200169,,
1.8400000017136335,-0.016926190692873495,1.6464582797596624e-5,0.014286608029450797,,
1.8800000017508864,-0.012516661795039498,1.705104469267853e-5,0.014661547377047652,,
1.9200000017881393,-0.007959774437859552,1.7652760110239104e-5,0.01504288543901435,,
1.9600000018253922,-0.0032352277113361512,1.8269987171431707e-5,0.015430676529815075,,
2.000000001862645,0.0016700099548326488,1.8902993892435735e-5,0.015825168025100707,,
2.040000001899898,0.006748794452240783,1.9552067990643895e-5,0.016226852455204003,,
2.080000001937151,0.012000034529662558,2.021749285394829e-5,0.016635621582609842,,
2.120000001974404,0.017422420440951172,2.089954753913599e-5,0.017051367129692532,,
2.1600000020116568,0.0230088767509251,2.1598523925282362e-5,0.01747440965365929,,
2.2000000020489097,0.028770587655657643,2.2314695861888467e-5,0.01790429841515261,,
2.2400000020861626,0.03475167923738965,2.3048367672587126e-5,0.01834179526746648,,
2.2800000021234155,0.040936315139064205,2.379984806402492e-5,0.01878700978594485,,
2.3200000021606684,0.0472350504401767,2.456945396810225e-5,0.019240147601933256,,
2.3600000021979213,0.053805853811235704,2.5357510486408663e-5,0.019701412957660314,,
2.400000002235174,0.060442790534898816,2.6164346936109624e-5,0.020170911242524032,,
2.440000002272427,0.06722588423006248,2.699029889798298e-5,0.02064879904683392,,
2.48000000230968,0.0742321201987018,2.7835701354934853e-5,0.021135061423796796,,
2.520000002346933,0.08164796616793703,2.8700904119781368e-5,0.021630069121162863,,
2.560000002384186,0.08882474389600542,2.9586271755379024e-5,0.022134190889941417,,
2.6000000024214387,0.0964914576394908,3.0492167986342663e-5,0.022647405774090953,,
2.6400000024586916,0.10397164223782039,3.1418955550955225e-5,0.023169689115314068,,
2.6800000024959445,0.11194401037467543,3.236702014885519e-5,0.023701614947499113,,
2.7200000025331974,0.1201240951001442,3.333675701776821e-5,0.024243421722825453,,
2.7600000025704503,0.1288139962120624,3.4328540647568714e-5,0.02479459074501264,,
2.800000002607703,0.13675286104676776,3.5342778552649645e-5,0.025355947627023267,,
2.840000002644956,0.1455844948772163,3.637987474825793e-5,0.025927404890207152,,
2.880000002682209,0.15409199364247067,3.744025444956183e-5,0.026509492532597503,,
2.920000002719462,0.1631636217212094,3.8524347435098614e-5,0.027102324638419578,,
2.960000002756715,0.17207726836872198,3.963256839398404e-5,0.02770552397213572,,
3.0000000027939677,0.18154400827893713,4.076537154175372e-5,0.02923324658007854,,
3.0400000028312206,0.18992006801255118,4.192318685416857e-5,0.03105043477955448,,
3.0800000028684735,0.2000547190473532,4.3106462214354577e-5,0.032916066140924995,,
3.1200000029057264,0.2097165158982315,4.4315657050229334e-5,0.034828035229739956,,
3.1600000029429793,0.21907662578154066,4.5551226465184e-5,0.03678405780322234,,
3.2000000029802322,0.22873717254952436,4.6813626837921156e-5,0.038781673631599116,,
3.240000003017485,0.23926202633030605,4.810335093962663e-5,0.040818249911254344,,
3.280000003054738,0.2494185506764873,4.9420866682917495e-5,0.042890985266465315,,
3.320000003091991,0.25920648655761014,5.076665064369269e-5,0.04499691433451137,,
3.360000003129244,0.26932931450331604,5.2141179892776586e-5,0.0471329129269332,,
3.4000000031664968,0.2802242621968347,5.3544930570209446e-5,0.04929570375774199,,
3.4400000032037497,0.29021014572123044,5.497839583236382e-5,0.051481862727423666,,
3.4800000032410026,0.30101962807589405,5.6442082349754267e-5,0.05368782574959048,,
3.5200000032782555,0.31200367224834125,5.793648345316691e-5,0.05590989610526831,,
3.5600000033155084,0.3226349842299995,5.946207463645873e-5,0.05814425230785922,,
3.6000000033527613,0.33335771463269154,6.101934771282107e-5,0.06038695646001783,,
3.640000003390014,0.3441396730739017,6.260880941297779e-5,0.06263396308185729,,
3.680000003427267,0.3550865037961046,6.423095373152693e-5,0.06488112838816265,,
3.72000000346452,0.36618271789436757,6.588629297734056e-5,0.06712421999059041,,
3.760000003501773,0.37768715601944003,6.757533325623474e-5,0.06935892699925053,,
3.800000003539026,0.38758710203643815,6.929856153096279e-5,0.07158087049647656,,
3.8400000035762787,0.3993381843367855,7.105646894554215e-5,0.07378561435415912,,
3.8800000036135316,0.41007686393107046,7.284953856139366e-5,0.07596867636461861,,
3.9200000036507845,0.4222521050014749,7.467826704169304e-5,0.07812553965369366,,
3.9600000036880374,0.43262203297872914,7.654316093134232e-5,0.08025166434355323,,
4.00000000372529,0.4436230393953955,7.844468970870482e-5,0.08234249943159663,,
4.040000003762543,0.4548912342364383,8.038333162439378e-5,0.08439349485085312,,
4.080000003799796,0.46540374146173247,8.235957308716536e-5,0.08640011367635252,,
4.120000003837049,0.4756946761120571,8.437387915893677e-5,0.08835784444125419,,
4.160000003874302,0.4871757391081099,8.64267153079125e-5,0.09026221352570303,,
4.200000003911555,0.4982683190583805,8.851853230470461e-5,0.0921087975810295,,
4.240000003948808,0.5093842436182515,9.11641314633555e-5,0.09389323595128916,,
4.280000003986061,0.5194869540589052,9.498858118551609e-5,0.09561124305401474,,
4.3200000040233135,0.5315079060953983,9.887892601278509e-5,0.09725862068172494,,
4.360000004060566,0.542374667974848,0.00010283217682021603,0.09883127018577358,,
4.400000004097819,0.5514176478861185,0.00010684518500038191,0.10032520450414713,,
4.440000004135072,0.561638678537615,0.00011091464740018541,0.1017365599950874,,
4.480000004172325,0.5721102619047184,0.00011503711172172882,0.10306160803858529,,
4.520000004209578,0.5831639075031345,0.00011920898237646791,0.10429676636847711,,
4.560000004246831,0.5924087347768244,0.00012342652678039596,0.1054386100982014,,
4.600000004284084,0.6021733736460304,0.00012768588207656538,0.1064838824042353,,
4.640000004321337,0.6132043535209604,0.0001319830622698352,0.10742950483174533,,
4.68000000435859,0.6222860163436889,0.00013631396575736651,0.10827258718828311,,
4.7200000043958426,0.6318404418416098,0.00014067438323705185,0.10901043699213338,,
4.7600000044330955,0.6431010021551847,0.0001450600059747814,0.10964056844323883,,
4.800000004470348,0.6520587820971676,0.0001494718423247454,0.11029590874909959,,
4.840000004507601,0.659346839118456,0.00015390662497444913,0.11086956624259361,,
4.880000004544854,0.6679671602076381,0.00015836109724999775,0.11136180688871548,,
4.920000004582107,0.6778840332375504,0.00016283202183858543,0.11177311471469185,,
4.96000000461936,0.685820417778518,0.00016730655477656953,0.11186332344960265,,
5.000000004656613,0.6952482237551212,0.00017178162027931218,0.1118766375685662,,
5.040000004693866,0.7010766308655874,0.0001762542840747612,0.11181659488622551,,
5.080000004731119,0.7096311276021781,0.0001807217608191946,0.1116869186108349,,
5.120000004768372,0.7177377154776176,0.00018518142091297882,0.11149150234460543,,
5.1600000048056245,0.7250232544146887,0.0001896307966939289,0.1112343945237524,,
5.200000004842877,0.7333060586459469,0.0001940675879881008,0.11091978235429732,,
5.24000000488013,0.7401071326427996,0.00019848966700012613,0.11055197530063304,,
5.280000004917383,0.7470735369206103,0.00020289508252758275,0.11013538818641556,,
5.320000004954636,0.7525429681892942,0.00020728206348629067,0.10967452396769803,,
5.360000004991889,0.7609918005678181,0.00021164902173590022,0.10917395624023873,,
5.400000005029142,0.7677218428209872,0.00021599455419762833,0.10863831154320275,,
5.440000005066395,0.7734268036314321,0.00022031744425853042,0.10807225152255218,,
5.480000005103648,0.7779869500898059,0.00022461666245924097,0.10748045501776363,,
5.520000005140901,0.7848810147094039,0.00022889136646467146,0.10686760013576241,,
5.5600000051781535,0.7899232790384818,0.0002331409003197131,0.10623834637604102,,
5.600000005215406,0.7946147887223888,0.00023736479299454145,0.10559731687070867,,
5.640000005252659,0.7988309014300718,0.00024156275622665282,0.10494908080278423,,
5.680000005289912,0.8028133379167703,0.00024573468166926986,0.10429813606542601,,
5.720000005327165,0.8084063698386994,0.0002498806373582259,0.10364889222390068,,
5.760000005364418,0.8144720298390807,0.0002540008635118668,0.10300565384102334,,
5.800000005401671,0.8152035424393733,0.0002580957676808856,0.10237260422546987,,
5.840000005438924,0.8202859654994399,0.000262165919267322,0.10175378966090973,,
5.880000005476177,0.8218457301975329,0.00026621744918470036,0.1012882479344587,,
5.92000000551343,0.824124620945669,0.00027025244534641324,0.10120809684781751,,
5.9600000055506825,0.8280622297245128,0.00027427322080629437,0.10238269481458583,,
6.0000000055879354,0.8303929162310076,0.0002782823052252766,0.10355241200036971,,
6.040000005625188,0.8301007962341875,0.0002822824355127015,0.10471595898342796,,
6.080000005662441,0.8320440154044672,0.00028627654567039805,0.10587293815689455,,
6.120000005699694,0.8369762026226111,0.0002902677558704599,0.10702281708993243,,
6.160000005736947,0.8351965001901708,0.00029425936080031384,0.10816555103623453,,
6.2000000057742,0.8345269943940165,0.0002982548173112781,0.10930106868073261,,
6.240000005811453,0.835657371230164,0.00030225773140927646,0.11042825770513119,,
6.280000005848706,0.8353758035313663,0.00030627184462872004,0.1115471501889146,,
6.320000005885959,0.8363136510964575,0.0003103010198327943,0.11265707860191462,,
6.360000005923212,0.8349095153751891,0.00031434922648546673,0.1137579669713691,,
6.4000000059604645,0.8352215609411756,0.0003184205254424637,0.11484926702245322,,
6.440000005997717,0.832434241264862,0.00032251905331025276,0.11593090182168517,,
6.48000000603497,0.8318874777686093,0.0003266490064236824,0.1170017438130059,,
6.520000006072223,0.8306456911918011,0.00033081462449439665,0.11806187537533518,,
6.560000006109476,0.8281009623894899,0.00033502017398341936,0.11911096314909336,,
6.600000006146729,0.8269411249192741,0.0003392699312524313,0.12014847198177411,,
6.640000006183982,0.8233324165887556,0.0003435681655491755,0.12117432583346387,,
6.680000006221235,0.821776521485956,0.0003479191218831973,0.12218739707547964,,
6.720000006258488,0.8183908652861088,0.00035232700384867495,0.12318761046020486,,
6.760000006295741,0.8176592117696524,0.00035679595645148206,0.12417458766763102,,
6.8000000063329935,0.8118289484228062,0.0003613300489978095,0.12514838434025638,,
6.840000006370246,0.8100536217416796,0.0003659332581016618,0.1261082404462106,,
6.880000006407499,0.8060301350347004,0.00037060945086836726,0.1270532664181351,,
6.920000006444752,0.802515864571136,0.00037536236831083286,0.12798364272871857,,
6.960000006482005,0.7987679931102606,0.00038019560905471644,0.12889826975884558,,
7.000000006519258,0.7961412831997016,0.0003851126133879212,0.1297969782067704,,
7.040000006556511,0.7904147608204063,0.0003901166477088614,0.13067939324000513,,
7.080000006593764,0.7846829124584446,0.00039521078942682345,0.1315454043781993,,
7.120000006631017,0.7802831799193419,0.0004003979123664285,0.13239438325914016,,
7.16000000666827,0.77709730147484,0.000405680672726717,0.1332254395815496,,
7.2000000067055225,0.7718124020448888,0.0004110614956437123,0.13452057292488304,,
7.240000006742775,0.7665627843852123,0.0004165425624034997,0.13702666899468413,,
7.280000006780028,0.762343382224371,0.0004221257983508671,0.13958089868418536,,
7.320000006817281,0.7588309272026906,0.0004278128615364174,0.14217657963875782,,
7.360000006854534,0.7518423064380033,0.0004336051321427729,0.14480676515888702,,
7.400000006891787,0.7480233704562793,0.0004395037027280755,0.1474642646325647,,
7.44000000692904,0.7440401744549449,0.0004455093693224121,0.15014166485841485,,
7.480000006966293,0.7382280915301807,0.00045162262341013964,0.1528313521931889,,
7.520000007003546,0.7344427349301129,0.00045784364482826537,0.15552553545314324,,
7.560000007040799,0.7290194297245169,0.0004641722956081532,0.15821626949719553,,
7.600000007078052,0.7240313448299699,0.0004706081147848308,0.16089547941694024,,
7.6400000071153045,0.717412695124716,0.0004771503141950817,0.1635549852562726,,
7.680000007152557,0.714371081608735,0.00048379777528236294,0.1661865271820309,,
7.72000000718981,0.7089857892955759,0.0004905490469233588,0.16878179102489685,,
7.760000007227063,0.7067638693411856,0.0004974023442877028,0.17133243410860002,,
7.800000007264316,0.6995461855160122,0.0005043555487390913,0.1738301112847129,,
7.840000007301569,0.6942717640194078,0.0005114062087826441,0.17626650108881953,,
7.880000007338822,0.6902881554789098,0.0005185515420600085,0.1786333319341108,,
7.920000007376075,0.6864558915321626,0.0005257884383903011,0.18092240825731307,,
7.960000007413328,0.6812854419627198,0.0005331134638516178,0.18312563653291827,,
8.00000000745058,0.6784058271063389,0.0005405228658944537,0.1852350510708967,,
8.040000007487833,0.6726406296827255,0.000548002960214412,0.1870023579989585,,
8.080000007525086,0.6699192385674801,0.0005555494732310608,0.18866282541621965,,
8.12000000756234,0.6647661553498944,0.0005631579305373766,0.19021143265789617,,
8.160000007599592,0.66174745735214,0.0005708236651617443,0.19164336560919115,,
8.200000007636845,0.6579382209508337,0.0005785461107419403,0.19306113950490122,,
8.240000007674098,0.6549253089168028,0.0005863191939116888,0.19432707924371032,,
8.280000007711351,0.6534568026930849,0.0005941367604796282,0.19543916419848492,,
8.320000007748604,0.6479661951195926,0.000601992585194217,0.19639561786472,,
8.360000007785857,0.6464600225988949,0.0006098803816463594,0.1971949113035613,,
8.40000000782311,0.6438777537238752,0.0006177938122905646,0.1978357661051302,,
8.440000007860363,0.6419082063635786,0.0006257264985652327,0.1983171568667013,,
8.480000007897615,0.6397072766978636,0.000633672031092451,0.1986383131804593,,
8.520000007934868,0.6375811913780568,0.0006416239799375152,0.19879872112660288,,
8.560000007972121,0.6356138803570764,0.0006495759049082801,0.19879812426912463,,
8.600000008009374,0.6344250517163611,0.0006575213658743429,0.1986365241515679,,
8.640000008046627,0.6327504471678999,0.0006654539330860468,0.198314180292598,,
8.68000000808388,0.6310843517386658,0.0006733671974732734,0.19783160968066615,,
8.720000008121133,0.6305512270113065,0.0006812547809040414,0.1971895857691983,,
8.760000008158386,0.6301833049149402,0.0006891103463830111,0.19638913697424296,,
8.800000008195639,0.629521597138786,0.0006969276081701209,0.1954315446777452,,
8.840000008232892,0.6289773967712781,0.0007047003417997418,0.19431834074052212,,
8.880000008270144,0.6291140149867059,0.0007124223939809424,0.19305130453001487,,
8.920000008307397,0.6292374731643436,0.0007200876923596999,0.191632459468937,,
8.96000000834465,0.6296675923492546,0.0007276902551241833,0.19006406911208626,,
9.000000008381903,0.6302982918675736,0.0007352242004345424,0.18834863275897668,,
9.040000008419156,0.6326063267102426,0.0007426837556590209,0.18648888061196262,,
9.080000008456409,0.6338938992752094,0.0007500632663985843,0.18448776848908616,,
9.120000008493662,0.6343553653210885,0.0007573475898713332,0.1821080868187223,,
9.160000008530915,0.6348433733534672,0.0007645314310662559,0.17959602987306633,,
9.200000008568168,0.6363387082663633,0.0007716097352060793,0.17695760349558623,,
9.24000000860542,0.6380012661910167,0.0007785776949314209,0.17419899313353998,,
9.280000008642673,0.642053038320527,0.0007854307567827654,0.17132654628361227,,
9.320000008679926,0.6418688725105834,0.000792164626970379,0.16834675469033916,,
9.36000000871718,0.6442472314334513,0.000798775276424427,0.16526623635120102,,
9.400000008754432,0.6465123072197437,0.0008052589451197984,0.1620917173842843,,
9.440000008791685,0.6479070906340667,0.000811612145672311,0.15883001381281492,,
9.480000008828938,0.652235603400609,0.0008178316662051807,0.15548801332174383,,
9.520000008866191,0.654856183641629,0.0008239145724867787,0.1520726570399493,,
9.560000008903444,0.6577652524032982,0.0008298582093429049,0.14859092140315547,,
9.600000008940697,0.6605877015539319,0.0008356602013488708,0.14504980014914795,,
9.64000000897795,0.6627544129099043,0.0008413184528087983,0.14145628649818745,,
9.680000009015203,0.6654422473313811,0.0008468311470315894,0.13781735556977667,,
